-0.042
-0.042
-0.042
-0.042
-0.038
-0.038
-0.038
-0.038
-0.032
-0.032
-0.032
-0.032
-0.034
-0.034
-0.034
-0.034
-0.031
-0.031
-0.031
-0.031
-0.026
-0.026
-0.026
-0.026
-0.022
-0.022
-0.022
-0.022
-0.028
-0.028
-0.028
-0.028
-0.044
-0.044
-0.044
-0.044
-0.034
-0.034
-0.034
-0.034
-0.028
-0.028
-0.028
-0.028
-0.035
-0.035
-0.035
-0.035
-0.048
-0.048
-0.048
-0.048
-0.043
-0.043
-0.043
-0.043
-0.029
-0.029
-0.029
-0.029
-0.028
-0.028
-0.028
-0.028
-0.029
-0.029
-0.029
-0.029
-0.023
-0.023
-0.023
-0.023
-0.026
-0.026
-0.026
-0.026
-0.035
-0.035
-0.035
-0.035
-0.026
-0.026
-0.026
-0.026
-0.034
-0.034
-0.034
-0.034
-0.026
-0.026
-0.026
-0.026
-0.028
-0.028
-0.028
-0.028
-0.035
-0.035
-0.035
-0.035
-0.015
-0.015
-0.015
-0.015
-0.028
-0.028
-0.028
-0.028
-0.028
-0.028
-0.028
-0.028
-0.037
-0.037
-0.037
-0.037
-0.031
-0.031
-0.031
-0.031
-0.026
-0.026
-0.026
-0.026
-0.018
-0.018
-0.018
-0.018
-0.024
-0.024
-0.024
-0.024
-0.033
-0.033
-0.033
-0.033
-0.024
-0.024
-0.024
-0.024
-0.026
-0.026
-0.026
-0.026
-0.029
-0.029
-0.029
-0.029
-0.023
-0.023
-0.023
-0.023
-0.034
-0.034
-0.034
-0.034
-0.029
-0.029
-0.029
-0.029
-0.034
-0.034
-0.034
-0.034
-0.032
-0.032
-0.032
-0.032
-0.027
-0.027
-0.027
-0.027
-0.026
-0.026
-0.026
-0.026
-0.022
-0.022
-0.022
-0.022
-0.024
-0.024
-0.024
-0.024
-0.017
-0.017
-0.017
-0.017
-0.031
-0.031
-0.031
-0.031
-0.033
-0.033
-0.033
-0.033
-0.02
-0.02
-0.02
-0.02
-0.018
-0.018
-0.018
-0.018
-0.029
-0.029
-0.029
-0.029
-0.026
-0.026
-0.026
-0.026
-0.034
-0.034
-0.034
-0.034
-0.02
-0.02
-0.02
-0.02
-0.023
-0.023
-0.023
-0.023
-0.035
-0.035
-0.035
-0.035
-0.032
-0.032
-0.032
-0.032
-0.017
-0.017
-0.017
-0.017
-0.015
-0.015
-0.015
-0.015
-0.01
-0.01
-0.01
-0.01
-0.026
-0.026
-0.026
-0.026
-0.026
-0.026
-0.026
-0.026
-0.037
-0.037
-0.037
-0.037
-0.023
-0.023
-0.023
-0.023
-0.029
-0.029
-0.029
-0.029
-0.011
-0.011
-0.011
-0.011
-0.035
-0.035
-0.035
-0.035
-0.011
-0.011
-0.011
-0.011
-0.007
-0.007
-0.007
-0.007
-0.02
-0.02
-0.02
-0.02
-0.021
-0.021
-0.021
-0.021
-0.004
-0.004
-0.004
-0.004
-0.002
-0.002
-0.002
-0.002
-0.011
-0.011
-0.011
-0.011
-0.023
-0.023
-0.023
-0.023
-0.007
-0.007
-0.007
-0.007
-0.004
-0.004
-0.004
-0.004
0.002
0.002
0.002
0.002
0.001
0.001
0.001
0.001
-0.009
-0.009
-0.009
-0.009
-0.001
-0.001
-0.001
-0.001
-0.013
-0.013
-0.013
-0.013
0.006
0.006
0.006
0.006
-0.02
-0.02
-0.02
-0.02
-0.007
-0.007
-0.007
-0.007
-0.017
-0.017
-0.017
-0.017
-0.024
-0.024
-0.024
-0.024
-0.032
-0.032
-0.032
-0.032
-0.034
-0.034
-0.034
-0.034
-0.037
-0.037
-0.037
-0.037
-0.022
-0.022
-0.022
-0.022
-0.024
-0.024
-0.024
-0.024
-0.027
-0.027
-0.027
-0.027
-0.015
-0.015
-0.015
-0.015
-0.032
-0.032
-0.032
-0.032
-0.028
-0.028
-0.028
-0.028
-0.018
-0.018
-0.018
-0.018
-0.021
-0.021
-0.021
-0.021
-0.021
-0.021
-0.021
-0.021
-0.011
-0.011
-0.011
-0.011
-0.033
-0.033
-0.033
-0.033
-0.039
-0.039
-0.039
-0.039
-0.021
-0.021
-0.021
-0.021
-0.009
-0.009
-0.009
-0.009
-0.026
-0.026
-0.026
-0.026
-0.027
-0.027
-0.027
-0.027
-0.011
-0.011
-0.011
-0.011
-0.007
-0.007
-0.007
-0.007
-0.017
-0.017
-0.017
-0.017
-0.017
-0.017
-0.017
-0.017
-0.016
-0.016
-0.016
-0.016
-0.024
-0.024
-0.024
-0.024
-0.012
-0.012
-0.012
-0.012
-0.02
-0.02
-0.02
-0.02
-0.013
-0.013
-0.013
-0.013
-0.016
-0.016
-0.016
-0.016
-0.033
-0.033
-0.033
-0.033
-0.018
-0.018
-0.018
-0.018
-0.023
-0.023
-0.023
-0.023
-0.018
-0.018
-0.018
-0.018
-0.016
-0.016
-0.016
-0.016
-0.013
-0.013
-0.013
-0.013
-0.026
-0.026
-0.026
-0.026
-0.035
-0.035
-0.035
-0.035
-0.033
-0.033
-0.033
-0.033
-0.024
-0.024
-0.024
-0.024
-0.023
-0.023
-0.023
-0.023
-0.033
-0.033
-0.033
-0.033
-0.029
-0.029
-0.029
-0.029
-0.039
-0.039
-0.039
-0.039
-0.034
-0.034
-0.034
-0.034
-0.021
-0.021
-0.021
-0.021
-0.017
-0.017
-0.017
-0.017
-0.021
-0.021
-0.021
-0.021
-0.024
-0.024
-0.024
-0.024
0.001
0.001
0.001
0.001
0.018
0.018
0.018
0.018
0.038
0.038
0.038
0.038
0.062
0.062
0.062
0.062
0.078
0.078
0.078
0.078
0.095
0.095
0.095
0.095
0.111
0.111
0.111
0.111
0.106
0.106
0.106
0.106
0.1
0.1
0.1
0.1
0.04
0.04
0.04
0.04
-0.067
-0.067
-0.067
-0.067
-0.26
-0.26
-0.26
-0.26
-0.459
-0.459
-0.459
-0.459
-0.704
-0.704
-0.704
-0.704
-0.967
-0.967
-0.967
-0.967
-1.196
-1.196
-1.196
-1.196
-1.367
-1.367
-1.367
-1.367
-1.464
-1.464
-1.464
-1.464
-1.452
-1.452
-1.452
-1.452
-1.337
-1.337
-1.337
-1.337
-1.214
-1.214
-1.214
-1.214
-1.071
-1.071
-1.071
-1.071
-0.884
-0.884
-0.884
-0.884
-0.639
-0.639
-0.639
-0.639
-0.36
-0.36
-0.36
-0.36
-0.198
-0.198
-0.198
-0.198
-0.112
-0.112
-0.112
-0.112
-0.078
-0.078
-0.078
-0.078
-0.056
-0.056
-0.056
-0.056
-0.031
-0.031
-0.031
-0.031
-0.016
-0.016
-0.016
-0.016
-0.007
-0.007
-0.007
-0.007
-0.005
-0.005
-0.005
-0.005
0.005
0.005
0.005
0.005
0.016
0.016
0.016
0.016
0.013
0.013
0.013
0.013
0.039
0.039
0.039
0.039
0.034
0.034
0.034
0.034
0.027
0.027
0.027
0.027
0.045
0.045
0.045
0.045
0.038
0.038
0.038
0.038
0.05
0.05
0.05
0.05
0.046
0.046
0.046
0.046
0.051
0.051
0.051
0.051
0.063
0.063
0.063
0.063
0.056
0.056
0.056
0.056
0.051
0.051
0.051
0.051
0.066
0.066
0.066
0.066
0.066
0.066
0.066
0.066
0.065
0.065
0.065
0.065
0.074
0.074
0.074
0.074
0.055
0.055
0.055
0.055
0.068
0.068
0.068
0.068
0.062
0.062
0.062
0.062
0.067
0.067
0.067
0.067
0.06
0.06
0.06
0.06
0.059
0.059
0.059
0.059
0.06
0.06
0.06
0.06
0.061
0.061
0.061
0.061
0.071
0.071
0.071
0.071
0.061
0.061
0.061
0.061
0.066
0.066
0.066
0.066
0.055
0.055
0.055
0.055
0.063
0.063
0.063
0.063
0.049
0.049
0.049
0.049
0.062
0.062
0.062
0.062
0.081
0.081
0.081
0.081
0.055
0.055
0.055
0.055
0.056
0.056
0.056
0.056
0.055
0.055
0.055
0.055
0.062
0.062
0.062
0.062
0.061
0.061
0.061
0.061
0.055
0.055
0.055
0.055
0.061
0.061
0.061
0.061
0.072
0.072
0.072
0.072
0.044
0.044
0.044
0.044
0.055
0.055
0.055
0.055
0.057
0.057
0.057
0.057
0.054
0.054
0.054
0.054
0.049
0.049
0.049
0.049
0.061
0.061
0.061
0.061
0.054
0.054
0.054
0.054
0.06
0.06
0.06
0.06
0.061
0.061
0.061
0.061
0.054
0.054
0.054
0.054
0.054
0.054
0.054
0.054
0.067
0.067
0.067
0.067
0.061
0.061
0.061
0.061
0.065
0.065
0.065
0.065
0.067
0.067
0.067
0.067
0.057
0.057
0.057
0.057
0.063
0.063
0.063
0.063
0.057
0.057
0.057
0.057
0.052
0.052
0.052
0.052
0.055
0.055
0.055
0.055
0.049
0.049
0.049
0.049
0.067
0.067
0.067
0.067
0.061
0.061
0.061
0.061
0.056
0.056
0.056
0.056
0.05
0.05
0.05
0.05
0.055
0.055
0.055
0.055
0.049
0.049
0.049
0.049
0.05
0.05
0.05
0.05
0.054
0.054
0.054
0.054
0.063
0.063
0.063
0.063
0.048
0.048
0.048
0.048
0.057
0.057
0.057
0.057
0.04
0.04
0.04
0.04
0.06
0.06
0.06
0.06
0.048
0.048
0.048
0.048
0.032
0.032
0.032
0.032
0.044
0.044
0.044
0.044
0.038
0.038
0.038
0.038
0.035
0.035
0.035
0.035
0.04
0.04
0.04
0.04
0.032
0.032
0.032
0.032
0.015
0.015
0.015
0.015
0.023
0.023
0.023
0.023
0.035
0.035
0.035
0.035
0.012
0.012
0.012
0.012
0.016
0.016
0.016
0.016
0.022
0.022
0.022
0.022
0.006
0.006
0.006
0.006
-0.007
-0.007
-0.007
-0.007
-0.004
-0.004
-0.004
-0.004
-0.013
-0.013
-0.013
-0.013
-0.027
-0.027
-0.027
-0.027
-0.026
-0.026
-0.026
-0.026
-0.033
-0.033
-0.033
-0.033
-0.043
-0.043
-0.043
-0.043
-0.033
-0.033
-0.033
-0.033
-0.044
-0.044
-0.044
-0.044
-0.048
-0.048
-0.048
-0.048
-0.042
-0.042
-0.042
-0.042
-0.046
-0.046
-0.046
-0.046
-0.046
-0.046
-0.046
-0.046
-0.032
-0.032
-0.032
-0.032
-0.032
-0.032
-0.032
-0.032
-0.037
-0.037
-0.037
-0.037
-0.027
-0.027
-0.027
-0.027
-0.044
-0.044
-0.044
-0.044
-0.031
-0.031
-0.031
-0.031
-0.031
-0.031
-0.031
-0.031
-0.021
-0.021
-0.021
-0.021
-0.042
-0.042
-0.042
-0.042
-0.027
-0.027
-0.027
-0.027
-0.021
-0.021
-0.021
-0.021
-0.027
-0.027
-0.027
-0.027
-0.022
-0.022
-0.022
-0.022
-0.009
-0.009
-0.009
-0.009
-0.01
-0.01
-0.01
-0.01
-0.027
-0.027
-0.027
-0.027
-0.004
-0.004
-0.004
-0.004
0.002
0.002
0.002
0.002
-0.017
-0.017
-0.017
-0.017
-0.015
-0.015
-0.015
-0.015
-0.018
-0.018
-0.018
-0.018
-0.004
-0.004
-0.004
-0.004
0.004
0.004
0.004
0.004
0.006
0.006
0.006
0.006
-0.002
-0.002
-0.002
-0.002
-0.007
-0.007
-0.007
-0.007
-0.013
-0.013
-0.013
-0.013
-0.001
-0.001
-0.001
-0.001
-0.002
-0.002
-0.002
-0.002
-0.012
-0.012
-0.012
-0.012
-0.002
-0.002
-0.002
-0.002
-0.004
-0.004
-0.004
-0.004
0.004
0.004
0.004
0.004
-0.006
-0.006
-0.006
-0.006
-0.001
-0.001
-0.001
-0.001
0.002
0.002
0.002
0.002
0.002
0.002
0.002
0.002
0.006
0.006
0.006
0.006
0.004
0.004
0.004
0.004
0.002
0.002
0.002
0.002




0.006
0.006
0.006
0.006
0.009
0.009
0.009
0.009
0.009
0.009
0.009
0.009
0.013
0.013
0.013
0.013
0.018
0.018
0.018
0.018
0.007
0.007
0.007
0.007
0.016
0.016
0.016
0.016
0.023
0.023
0.023
0.023
0.018
0.018
0.018
0.018
0.02
0.02
0.02
0.02
0.023
0.023
0.023
0.023
0.022
0.022
0.022
0.022
0.006
0.006
0.006
0.006
0.02
0.02
0.02
0.02
0.018
0.018
0.018
0.018
0.02
0.02
0.02
0.02
0.015
0.015
0.015
0.015
0.011
0.011
0.011
0.011
0.011
0.011
0.011
0.011
0.006
0.006
0.006
0.006
0.001
0.001
0.001
0.001
0.004
0.004
0.004
0.004
0.004
0.004
0.004
0.004
-0.001
-0.001
-0.001
-0.001
-0.005
-0.005
-0.005
-0.005




-0.004
-0.004
-0.004
-0.004




0.011
0.011
0.011
0.011
-0.005
-0.005
-0.005
-0.005
-0.002
-0.002
-0.002
-0.002
0.001
0.001
0.001
0.001
0.002
0.002
0.002
0.002
0.005
0.005
0.005
0.005
0.001
0.001
0.001
0.001
0.004
0.004
0.004
0.004
0.005
0.005
0.005
0.005
0.013
0.013
0.013
0.013
0.017
0.017
0.017
0.017
0.011
0.011
0.011
0.011
0.012
0.012
0.012
0.012
0.015
0.015
0.015
0.015
0.01
0.01
0.01
0.01
0.016
0.016
0.016
0.016
0.017
0.017
0.017
0.017
0.01
0.01
0.01
0.01
0.013
0.013
0.013
0.013
0.013
0.013
0.013
0.013
0.032
0.032
0.032
0.032
0.007
0.007
0.007
0.007
0.007
0.007
0.007
0.007
0.012
0.012
0.012
0.012
0.018
0.018
0.018
0.018
0.012
0.012
0.012
0.012
0.016
0.016
0.016
0.016
0.016
0.016
0.016
0.016
0.01
0.01
0.01
0.01
0.011
0.011
0.011
0.011
0.006
0.006
0.006
0.006
0.022
0.022
0.022
0.022
0.009
0.009
0.009
0.009
0.01
0.01
0.01
0.01
0.01
0.01
0.01
0.01
0.015
0.015
0.015
0.015
0.011
0.011
0.011
0.011
0.022
0.022
0.022
0.022
0.018
0.018
0.018
0.018
0.027
0.027
0.027
0.027
0.046
0.046
0.046
0.046
0.085
0.085
0.085
0.085
0.098
0.098
0.098
0.098
0.118
0.118
0.118
0.118
0.123
0.123
0.123
0.123
0.142
0.142
0.142
0.142
0.131
0.131
0.131
0.131
0.122
0.122
0.122
0.122
0.048
0.048
0.048
0.048
-0.114
-0.114
-0.114
-0.114
-0.276
-0.276
-0.276
-0.276
-0.504
-0.504
-0.504
-0.504
-0.756
-0.756
-0.756
-0.756
-0.988
-0.988
-0.988
-0.988
-1.177
-1.177
-1.177
-1.177
-1.337
-1.337
-1.337
-1.337
-1.371
-1.371
-1.371
-1.371
-1.304
-1.304
-1.304
-1.304
-1.188
-1.188
-1.188
-1.188
-1.072
-1.072
-1.072
-1.072
-0.914
-0.914
-0.914
-0.914
-0.745
-0.745
-0.745
-0.745
-0.465
-0.465
-0.465
-0.465
-0.231
-0.231
-0.231
-0.231
-0.123
-0.123
-0.123
-0.123
-0.072
-0.072
-0.072
-0.072
-0.04
-0.04
-0.04
-0.04
-0.029
-0.029
-0.029
-0.029
0.001
0.001
0.001
0.001
0.021
0.021
0.021
0.021
0.011
0.011
0.011
0.011
0.01
0.01
0.01
0.01
0.022
0.022
0.022
0.022
0.035
0.035
0.035
0.035
0.02
0.02
0.02
0.02
0.033
0.033
0.033
0.033
0.037
0.037
0.037
0.037
0.035
0.035
0.035
0.035
0.056
0.056
0.056
0.056
0.048
0.048
0.048
0.048
0.055
0.055
0.055
0.055
0.052
0.052
0.052
0.052
0.057
0.057
0.057
0.057
0.056
0.056
0.056
0.056
0.056
0.056
0.056
0.056
0.056
0.056
0.056
0.056
0.061
0.061
0.061
0.061
0.06
0.06
0.06
0.06
0.052
0.052
0.052
0.052
0.065
0.065
0.065
0.065
0.055
0.055
0.055
0.055
0.066
0.066
0.066
0.066
0.062
0.062
0.062
0.062
0.059
0.059
0.059
0.059
0.059
0.059
0.059
0.059
0.05
0.05
0.05
0.05
0.059
0.059
0.059
0.059
0.063
0.063
0.063
0.063
0.066
0.066
0.066
0.066
0.056
0.056
0.056
0.056
0.06
0.06
0.06
0.06
0.054
0.054
0.054
0.054
0.054
0.054
0.054
0.054
0.042
0.042
0.042
0.042
0.051
0.051
0.051
0.051
0.057
0.057
0.057
0.057
0.049
0.049
0.049
0.049
0.05
0.05
0.05
0.05
0.06
0.06
0.06
0.06
0.051
0.051
0.051
0.051
0.063
0.063
0.063
0.063
0.068
0.068
0.068
0.068
0.062
0.062
0.062
0.062
0.062
0.062
0.062
0.062
0.055
0.055
0.055
0.055
0.057
0.057
0.057
0.057
0.054
0.054
0.054
0.054
0.066
0.066
0.066
0.066
0.05
0.05
0.05
0.05
0.062
0.062
0.062
0.062
0.056
0.056
0.056
0.056
0.06
0.06
0.06
0.06
0.067
0.067
0.067
0.067
0.054
0.054
0.054
0.054
0.065
0.065
0.065
0.065
0.055
0.055
0.055
0.055
0.052
0.052
0.052
0.052
0.052
0.052
0.052
0.052
0.052
0.052
0.052
0.052
0.055
0.055
0.055
0.055
0.062
0.062
0.062
0.062
0.054
0.054
0.054
0.054
0.056
0.056
0.056
0.056
0.061
0.061
0.061
0.061
0.065
0.065
0.065
0.065
0.072
0.072
0.072
0.072
0.054
0.054
0.054
0.054
0.061
0.061
0.061
0.061
0.067
0.067
0.067
0.067
0.061
0.061
0.061
0.061
0.055
0.055
0.055
0.055
0.054
0.054
0.054
0.054
0.046
0.046
0.046
0.046
0.052
0.052
0.052
0.052
0.056
0.056
0.056
0.056
0.055
0.055
0.055
0.055
0.051
0.051
0.051
0.051
0.049
0.049
0.049
0.049
0.063
0.063
0.063
0.063
0.038
0.038
0.038
0.038
0.048
0.048
0.048
0.048
0.052
0.052
0.052
0.052
0.045
0.045
0.045
0.045
0.052
0.052
0.052
0.052
0.044
0.044
0.044
0.044
0.045
0.045
0.045
0.045
0.045
0.045
0.045
0.045
0.044
0.044
0.044
0.044
0.035
0.035
0.035
0.035
0.024
0.024
0.024
0.024
0.021
0.021
0.021
0.021
0.012
0.012
0.012
0.012
0.011
0.011
0.011
0.011
0.005
0.005
0.005
0.005
0.006
0.006
0.006
0.006
-0.004
-0.004
-0.004
-0.004
-0.006
-0.006
-0.006
-0.006
-0.016
-0.016
-0.016
-0.016
-0.013
-0.013
-0.013
-0.013
-0.006
-0.006
-0.006
-0.006
-0.01
-0.01
-0.01
-0.01
-0.006
-0.006
-0.006
-0.006
-0.02
-0.02
-0.02
-0.02
-0.013
-0.013
-0.013
-0.013
-0.018
-0.018
-0.018
-0.018
-0.005
-0.005
-0.005
-0.005
-0.007
-0.007
-0.007
-0.007
-0.001
-0.001
-0.001
-0.001
0.001
0.001
0.001
0.001
-0.006
-0.006
-0.006
-0.006
0.01
0.01
0.01
0.01
0.007
0.007
0.007
0.007
0.002
0.002
0.002
0.002
0.01
0.01
0.01
0.01
0.007
0.007
0.007
0.007
0.01
0.01
0.01
0.01
0.006
0.006
0.006
0.006
0.017
0.017
0.017
0.017
0.015
0.015
0.015
0.015
0.023
0.023
0.023
0.023
0.016
0.016
0.016
0.016
0.028
0.028
0.028
0.028
0.028
0.028
0.028
0.028
0.024
0.024
0.024
0.024
0.023
0.023
0.023
0.023
0.021
0.021
0.021
0.021
0.026
0.026
0.026
0.026
0.028
0.028
0.028
0.028
0.02
0.02
0.02
0.02
0.028
0.028
0.028
0.028
0.026
0.026
0.026
0.026
0.021
0.021
0.021
0.021
0.031
0.031
0.031
0.031
0.023
0.023
0.023
0.023
0.024
0.024
0.024
0.024
0.026
0.026
0.026
0.026
0.021
0.021
0.021
0.021
0.022
0.022
0.022
0.022
0.023
0.023
0.023
0.023
0.021
0.021
0.021
0.021
0.023
0.023
0.023
0.023
0.018
0.018
0.018
0.018
0.02
0.02
0.02
0.02
0.016
0.016
0.016
0.016
0.013
0.013
0.013
0.013
0.016
0.016
0.016
0.016
0.015
0.015
0.015
0.015
0.022
0.022
0.022
0.022
0.02
0.02
0.02
0.02
0.013
0.013
0.013
0.013
0.013
0.013
0.013
0.013
0.007
0.007
0.007
0.007
0.013
0.013
0.013
0.013
0.012
0.012
0.012
0.012
0.013
0.013
0.013
0.013
0.015
0.015
0.015
0.015
0.013
0.013
0.013
0.013
0.012
0.012
0.012
0.012
0.015
0.015
0.015
0.015
0.015
0.015
0.015
0.015
0.011
0.011
0.011
0.011
0.021
0.021
0.021
0.021
0.009
0.009
0.009
0.009
0.018
0.018
0.018
0.018
0.011
0.011
0.011
0.011
0.015
0.015
0.015
0.015
0.009
0.009
0.009
0.009
0.01
0.01
0.01
0.01
0.013
0.013
0.013
0.013
0.013
0.013
0.013
0.013
0.005
0.005
0.005
0.005
0.016
0.016
0.016
0.016
0.013
0.013
0.013
0.013
0.01
0.01
0.01
0.01
0.012
0.012
0.012
0.012
0.012
0.012
0.012
0.012
0.015
0.015
0.015
0.015
0.012
0.012
0.012
0.012
0.007
0.007
0.007
0.007
0.009
0.009
0.009
0.009
0.012
0.012
0.012
0.012
0.011
0.011
0.011
0.011
0.015
0.015
0.015
0.015
0.012
0.012
0.012
0.012
0.011
0.011
0.011
0.011
0.015
0.015
0.015
0.015
0.007
0.007
0.007
0.007
0.007
0.007
0.007
0.007
0.01
0.01
0.01
0.01
0.007
0.007
0.007
0.007
0.006
0.006
0.006
0.006
0.007
0.007
0.007
0.007
0.009
0.009
0.009
0.009
0.007
0.007
0.007
0.007
0.01
0.01
0.01
0.01
0.005
0.005
0.005
0.005
0.004
0.004
0.004
0.004
0.002
0.002
0.002
0.002
0.004
0.004
0.004
0.004
0.005
0.005
0.005
0.005
0.001
0.001
0.001
0.001
0.007
0.007
0.007
0.007
0.005
0.005
0.005
0.005
0.006
0.006
0.006
0.006
0.004
0.004
0.004
0.004
0.006
0.006
0.006
0.006
0.004
0.004
0.004
0.004
0.004
0.004
0.004
0.004
0.004
0.004
0.004
0.004
0.004
0.004
0.004
0.004
0.009
0.009
0.009
0.009
0.001
0.001
0.001
0.001
0.006
0.006
0.006
0.006
0.007
0.007
0.007
0.007
0.002
0.002
0.002
0.002
0.001
0.001
0.001
0.001
0.002
0.002
0.002
0.002
0.002
0.002
0.002
0.002
0.005
0.005
0.005
0.005
0.005
0.005
0.005
0.005
0.005
0.005
0.005
0.005
0.006
0.006
0.006
0.006
0.002
0.002
0.002
0.002
0.004
0.004
0.004
0.004
0.002
0.002
0.002
0.002
0.002
0.002
0.002
0.002
0.005
0.005
0.005
0.005
0.004
0.004
0.004
0.004
0.007
0.007
0.007
0.007
-0.006
-0.006
-0.006
-0.006
-0.009
-0.009
-0.009
-0.009
-0.009
-0.009
-0.009
-0.009
-0.007
-0.007
-0.007
-0.007
-0.011
-0.011
-0.011
-0.011
-0.005
-0.005
-0.005
-0.005
-0.009
-0.009
-0.009
-0.009
-0.005
-0.005
-0.005
-0.005
-0.001
-0.001
-0.001
-0.001
0.001
0.001
0.001
0.001
0.002
0.002
0.002
0.002
0.007
0.007
0.007
0.007
0.01
0.01
0.01
0.01
0.01
0.01
0.01
0.01
0.009
0.009
0.009
0.009
0.012
0.012
0.012
0.012
0.009
0.009
0.009
0.009
0.005
0.005
0.005
0.005
0.007
0.007
0.007
0.007
0.009
0.009
0.009
0.009
0.002
0.002
0.002
0.002
0.005
0.005
0.005
0.005
0.009
0.009
0.009
0.009
0.007
0.007
0.007
0.007
0.007
0.007
0.007
0.007
0.005
0.005
0.005
0.005
0.005
0.005
0.005
0.005
0.009
0.009
0.009
0.009
0.004
0.004
0.004
0.004
0.004
0.004
0.004
0.004
0.01
0.01
0.01
0.01
0.009
0.009
0.009
0.009
0.007
0.007
0.007
0.007
0.006
0.006
0.006
0.006
0.006
0.006
0.006
0.006
0.006
0.006
0.006
0.006
0.004
0.004
0.004
0.004
0.004
0.004
0.004
0.004
0.009
0.009
0.009
0.009
0.011
0.011
0.011
0.011
0.02
0.02
0.02
0.02
0.034
0.034
0.034
0.034
0.059
0.059
0.059
0.059
0.082
0.082
0.082
0.082
0.109
0.109
0.109
0.109
0.117
0.117
0.117
0.117
0.128
0.128
0.128
0.128
0.131
0.131
0.131
0.131
0.128
0.128
0.128
0.128
0.092
0.092
0.092
0.092
-0.027
-0.027
-0.027
-0.027
-0.208
-0.208
-0.208
-0.208
-0.397
-0.397
-0.397
-0.397
-0.648
-0.648
-0.648
-0.648
-0.883
-0.883
-0.883
-0.883
-1.095
-1.095
-1.095
-1.095
-1.253
-1.253
-1.253
-1.253
-1.333
-1.333
-1.333
-1.333
-1.288
-1.288
-1.288
-1.288
-1.182
-1.182
-1.182
-1.182
-1.061
-1.061
-1.061
-1.061
-0.938
-0.938
-0.938
-0.938
-0.797
-0.797
-0.797
-0.797
-0.56
-0.56
-0.56
-0.56
-0.315
-0.315
-0.315
-0.315
-0.162
-0.162
-0.162
-0.162
-0.093
-0.093
-0.093
-0.093
-0.052
-0.052
-0.052
-0.052
-0.028
-0.028
-0.028
-0.028
-0.022
-0.022
-0.022
-0.022
-0.006
-0.006
-0.006
-0.006
0.004
0.004
0.004
0.004
0.02
0.02
0.02
0.02
0.021
0.021
0.021
0.021
0.031
0.031
0.031
0.031
0.04
0.04
0.04
0.04
0.045
0.045
0.045
0.045
0.05
0.05
0.05
0.05
0.049
0.049
0.049
0.049
0.052
0.052
0.052
0.052
0.061
0.061
0.061
0.061
0.06
0.06
0.06
0.06
0.057
0.057
0.057
0.057
0.056
0.056
0.056
0.056
0.054
0.054
0.054
0.054
0.042
0.042
0.042
0.042
0.042
0.042
0.042
0.042
0.026
0.026
0.026
0.026
0.018
0.018
0.018
0.018
0.018
0.018
0.018
0.018
0.009
0.009
0.009
0.009
0.004
0.004
0.004
0.004
0.022
0.022
0.022
0.022
0.028
0.028
0.028
0.028
0.002
0.002
0.002
0.002
-0.002
-0.002
-0.002
-0.002
-0.007
-0.007
-0.007
-0.007
-0.016
-0.016
-0.016
-0.016
-0.018
-0.018
-0.018
-0.018
-0.02
-0.02
-0.02
-0.02
0.027
0.027
0.027
0.027
0.054
0.054
0.054
0.054
0.02
0.02
0.02
0.02
-0.011
-0.011
-0.011
-0.011
-0.022
-0.022
-0.022
-0.022
0.021
0.021
0.021
0.021
0.063
0.063
0.063
0.063
0.132
0.132
0.132
0.132
0.156
0.156
0.156
0.156
0.16
0.16
0.16
0.16
0.172
0.172
0.172
0.172
0.199
0.199
0.199
0.199
0.181
0.181
0.181
0.181
0.155
0.155
0.155
0.155
0.121
0.121
0.121
0.121
0.11
0.11
0.11
0.11
0.099
0.099
0.099
0.099
0.099
0.099
0.099
0.099
0.112
0.112
0.112
0.112
0.128
0.128
0.128
0.128
0.137
0.137
0.137
0.137
0.137
0.137
0.137
0.137
0.144
0.144
0.144
0.144
0.143
0.143
0.143
0.143
0.142
0.142
0.142
0.142
0.129
0.129
0.129
0.129
0.133
0.133
0.133
0.133
0.138
0.138
0.138
0.138
0.136
0.136
0.136
0.136
0.133
0.133
0.133
0.133
0.134
0.134
0.134
0.134
0.132
0.132
0.132
0.132
0.126
0.126
0.126
0.126
0.12
0.12
0.12
0.12
0.128
0.128
0.128
0.128
0.128
0.128
0.128
0.128
0.125
0.125
0.125
0.125
0.127
0.127
0.127
0.127
0.127
0.127
0.127
0.127
0.123
0.123
0.123
0.123
0.115
0.115
0.115
0.115
0.115
0.115
0.115
0.115
0.115
0.115
0.115
0.115
0.112
0.112
0.112
0.112
0.115
0.115
0.115
0.115
0.118
0.118
0.118
0.118
0.109
0.109
0.109
0.109
0.111
0.111
0.111
0.111
0.11
0.11
0.11
0.11
0.107
0.107
0.107
0.107
0.107
0.107
0.107
0.107
0.103
0.103
0.103
0.103
0.103
0.103
0.103
0.103
0.094
0.094
0.094
0.094
0.1
0.1
0.1
0.1
0.099
0.099
0.099
0.099
0.098
0.098
0.098
0.098
0.096
0.096
0.096
0.096
0.093
0.093
0.093
0.093
0.088
0.088
0.088
0.088
0.081
0.081
0.081
0.081
0.076
0.076
0.076
0.076
0.078
0.078
0.078
0.078
0.076
0.076
0.076
0.076
0.067
0.067
0.067
0.067
0.056
0.056
0.056
0.056
0.045
0.045
0.045
0.045
0.035
0.035
0.035
0.035
0.031
0.031
0.031
0.031
0.017
0.017
0.017
0.017
0.022
0.022
0.022
0.022
0.001
0.001
0.001
0.001
0.004
0.004
0.004
0.004
0.012
0.012
0.012
0.012
0.027
0.027
0.027
0.027
0.038
0.038
0.038
0.038
0.048
0.048
0.048
0.048
0.072
0.072
0.072
0.072
0.089
0.089
0.089
0.089
0.096
0.096
0.096
0.096
0.088
0.088
0.088
0.088
0.106
0.106
0.106
0.106
0.116
0.116
0.116
0.116
0.116
0.116
0.116
0.116
0.107
0.107
0.107
0.107
0.11
0.11
0.11
0.11
0.112
0.112
0.112
0.112
0.11
0.11
0.11
0.11
0.111
0.111
0.111
0.111
0.11
0.11
0.11
0.11
0.107
0.107
0.107
0.107
0.115
0.115
0.115
0.115
0.11
0.11
0.11
0.11
0.112
0.112
0.112
0.112
0.111
0.111
0.111
0.111
0.118
0.118
0.118
0.118
0.127
0.127
0.127
0.127
0.136
0.136
0.136
0.136
0.139
0.139
0.139
0.139
0.134
0.134
0.134
0.134
0.133
0.133
0.133
0.133
0.12
0.12
0.12
0.12
0.11
0.11
0.11
0.11
0.106
0.106
0.106
0.106
0.104
0.104
0.104
0.104
0.101
0.101
0.101
0.101
0.096
0.096
0.096
0.096
0.107
0.107
0.107
0.107
0.127
0.127
0.127
0.127
0.126
0.126
0.126
0.126
0.148
0.148
0.148
0.148
0.15
0.15
0.15
0.15
0.167
0.167
0.167
0.167
0.172
0.172
0.172
0.172
0.168
0.168
0.168
0.168
0.172
0.172
0.172
0.172
0.178
0.178
0.178
0.178
0.177
0.177
0.177
0.177
0.177
0.177
0.177
0.177
0.176
0.176
0.176
0.176
0.182
0.182
0.182
0.182
0.173
0.173
0.173
0.173
0.17
0.17
0.17
0.17
0.151
0.151
0.151
0.151
0.137
0.137
0.137
0.137
0.126
0.126
0.126
0.126
0.125
0.125
0.125
0.125
0.134
0.134
0.134
0.134
0.15
0.15
0.15
0.15
0.159
0.159
0.159
0.159
0.153
0.153
0.153
0.153
0.165
0.165
0.165
0.165
0.194
0.194
0.194
0.194
0.223
0.223
0.223
0.223
0.239
0.239
0.239
0.239
0.239
0.239
0.239
0.239
0.223
0.223
0.223
0.223
0.201
0.201
0.201
0.201
0.183
0.183
0.183
0.183
0.16
0.16
0.16
0.16
0.131
0.131
0.131
0.131
0.12
0.12
0.12
0.12
0.121
0.121
0.121
0.121
0.142
0.142
0.142
0.142
0.172
0.172
0.172
0.172
0.208
0.208
0.208
0.208
0.228
0.228
0.228
0.228
0.221
0.221
0.221
0.221
0.208
0.208
0.208
0.208
0.211
0.211
0.211
0.211
0.23
0.23
0.23
0.23
0.244
0.244
0.244
0.244
0.277
0.277
0.277
0.277
0.284
0.284
0.284
0.284
0.264
0.264
0.264
0.264
0.254
0.254
0.254
0.254
0.248
0.248
0.248
0.248
0.241
0.241
0.241
0.241
0.228
0.228
0.228
0.228
0.219
0.219
0.219
0.219
0.215
0.215
0.215
0.215
0.21
0.21
0.21
0.21
0.214
0.214
0.214
0.214
0.217
0.217
0.217
0.217
0.223
0.223
0.223
0.223
0.223
0.223
0.223
0.223
0.226
0.226
0.226
0.226
0.223
0.223
0.223
0.223
0.233
0.233
0.233
0.233
0.234
0.234
0.234
0.234
0.227
0.227
0.227
0.227
0.225
0.225
0.225
0.225
0.214
0.214
0.214
0.214
0.204
0.204
0.204
0.204
0.201
0.201
0.201
0.201
0.19
0.19
0.19
0.19
0.187
0.187
0.187
0.187
0.187
0.187
0.187
0.187
0.179
0.179
0.179
0.179
0.171
0.171
0.171
0.171
0.16
0.16
0.16
0.16
0.149
0.149
0.149
0.149
0.145
0.145
0.145
0.145
0.139
0.139
0.139
0.139
0.14
0.14
0.14
0.14
0.125
0.125
0.125
0.125
0.14
0.14
0.14
0.14
0.134
0.134
0.134
0.134
0.131
0.131
0.131
0.131
0.15
0.15
0.15
0.15
0.147
0.147
0.147
0.147
0.143
0.143
0.143
0.143
0.15
0.15
0.15
0.15
0.14
0.14
0.14
0.14
0.153
0.153
0.153
0.153
0.154
0.154
0.154
0.154
0.15
0.15
0.15
0.15
0.136
0.136
0.136
0.136
0.133
0.133
0.133
0.133
0.145
0.145
0.145
0.145
0.153
0.153
0.153
0.153
0.159
0.159
0.159
0.159
0.168
0.168
0.168
0.168
0.166
0.166
0.166
0.166
0.157
0.157
0.157
0.157
0.157
0.157
0.157
0.157
0.149
0.149
0.149
0.149
0.144
0.144
0.144
0.144
0.133
0.133
0.133
0.133
0.131
0.131
0.131
0.131
0.128
0.128
0.128
0.128
0.132
0.132
0.132
0.132
0.131
0.131
0.131
0.131
0.116
0.116
0.116
0.116
0.118
0.118
0.118
0.118
0.121
0.121
0.121
0.121
0.136
0.136
0.136
0.136
0.12
0.12
0.12
0.12
0.122
0.122
0.122
0.122
0.115
0.115
0.115
0.115
0.133
0.133
0.133
0.133
0.154
0.154
0.154
0.154
0.145
0.145
0.145
0.145
0.151
0.151
0.151
0.151
0.154
0.154
0.154
0.154
0.154
0.154
0.154
0.154
0.144
0.144
0.144
0.144
0.137
0.137
0.137
0.137
0.137
0.137
0.137
0.137
0.131
0.131
0.131
0.131
0.138
0.138
0.138
0.138
0.143
0.143
0.143
0.143
0.149
0.149
0.149
0.149
0.161
0.161
0.161
0.161
0.17
0.17
0.17
0.17
0.164
0.164
0.164
0.164
0.159
0.159
0.159
0.159
0.155
0.155
0.155
0.155
0.154
0.154
0.154
0.154
0.134
0.134
0.134
0.134
0.159
0.159
0.159
0.159
0.165
0.165
0.165
0.165
0.149
0.149
0.149
0.149
0.154
0.154
0.154
0.154
0.16
0.16
0.16
0.16
0.157
0.157
0.157
0.157
0.142
0.142
0.142
0.142
0.14
0.14
0.14
0.14
0.149
0.149
0.149
0.149
0.156
0.156
0.156
0.156
0.162
0.162
0.162
0.162
0.165
0.165
0.165
0.165
0.16
0.16
0.16
0.16
0.15
0.15
0.15
0.15
0.155
0.155
0.155
0.155
0.159
0.159
0.159
0.159
0.167
0.167
0.167
0.167
0.192
0.192
0.192
0.192
0.212
0.212
0.212
0.212
0.232
0.232
0.232
0.232
0.248
0.248
0.248
0.248
0.267
0.267
0.267
0.267
0.277
0.277
0.277
0.277
0.305
0.305
0.305
0.305
0.298
0.298
0.298
0.298
0.216
0.216
0.216
0.216
0.046
0.046
0.046
0.046
-0.148
-0.148
-0.148
-0.148
-0.32
-0.32
-0.32
-0.32
-0.512
-0.512
-0.512
-0.512
-0.692
-0.692
-0.692
-0.692
-0.857
-0.857
-0.857
-0.857
-1.004
-1.004
-1.004
-1.004
-1.008
-1.008
-1.008
-1.008
-0.941
-0.941
-0.941
-0.941
-0.835
-0.835
-0.835
-0.835
-0.731
-0.731
-0.731
-0.731
-0.629
-0.629
-0.629
-0.629
-0.486
-0.486
-0.486
-0.486
-0.295
-0.295
-0.295
-0.295
-0.166
-0.166
-0.166
-0.166
-0.054
-0.054
-0.054
-0.054
0.029
0.029
0.029
0.029
0.074
0.074
0.074
0.074
0.094
0.094
0.094
0.094
0.078
0.078
0.078
0.078
0.072
0.072
0.072
0.072
0.085
0.085
0.085
0.085
0.112
0.112
0.112
0.112
0.104
0.104
0.104
0.104
0.111
0.111
0.111
0.111
0.116
0.116
0.116
0.116
0.127
0.127
0.127
0.127
0.114
0.114
0.114
0.114
0.118
0.118
0.118
0.118
0.12
0.12
0.12
0.12
0.127
0.127
0.127
0.127
0.122
0.122
0.122
0.122
0.138
0.138
0.138
0.138
0.14
0.14
0.14
0.14
0.151
0.151
0.151
0.151
0.15
0.15
0.15
0.15
0.15
0.15
0.15
0.15
0.159
0.159
0.159
0.159
0.166
0.166
0.166
0.166
0.143
0.143
0.143
0.143
0.148
0.148
0.148
0.148
0.154
0.154
0.154
0.154
0.153
0.153
0.153
0.153
0.149
0.149
0.149
0.149
0.156
0.156
0.156
0.156
0.159
0.159
0.159
0.159
0.166
0.166
0.166
0.166
0.168
0.168
0.168
0.168
0.183
0.183
0.183
0.183
0.204
0.204
0.204
0.204
0.193
0.193
0.193
0.193
0.179
0.179
0.179
0.179
0.176
0.176
0.176
0.176
0.175
0.175
0.175
0.175
0.164
0.164
0.164
0.164
0.157
0.157
0.157
0.157
0.164
0.164
0.164
0.164
0.16
0.16
0.16
0.16
0.16
0.16
0.16
0.16
0.164
0.164
0.164
0.164
0.168
0.168
0.168
0.168
0.173
0.173
0.173
0.173
0.166
0.166
0.166
0.166
0.182
0.182
0.182
0.182
0.188
0.188
0.188
0.188
0.172
0.172
0.172
0.172
0.173
0.173
0.173
0.173
0.176
0.176
0.176
0.176
0.171
0.171
0.171
0.171
0.17
0.17
0.17
0.17
0.167
0.167
0.167
0.167
0.166
0.166
0.166
0.166
0.166
0.166
0.166
0.166
0.179
0.179
0.179
0.179
0.189
0.189
0.189
0.189
0.179
0.179
0.179
0.179
0.187
0.187
0.187
0.187
0.188
0.188
0.188
0.188
0.183
0.183
0.183
0.183
0.182
0.182
0.182
0.182
0.183
0.183
0.183
0.183
0.179
0.179
0.179
0.179
0.198
0.198
0.198
0.198
0.192
0.192
0.192
0.192
0.188
0.188
0.188
0.188
0.186
0.186
0.186
0.186
0.175
0.175
0.175
0.175
0.175
0.175
0.175
0.175
0.175
0.175
0.175
0.175
0.183
0.183
0.183
0.183
0.197
0.197
0.197
0.197
0.205
0.205
0.205
0.205
0.21
0.21
0.21
0.21
0.205
0.205
0.205
0.205
0.204
0.204
0.204
0.204
0.208
0.208
0.208
0.208
0.2
0.2
0.2
0.2
0.197
0.197
0.197
0.197
0.194
0.194
0.194
0.194
0.181
0.181
0.181
0.181
0.182
0.182
0.182
0.182
0.178
0.178
0.178
0.178
0.189
0.189
0.189
0.189
0.176
0.176
0.176
0.176
0.172
0.172
0.172
0.172
0.17
0.17
0.17
0.17
0.161
0.161
0.161
0.161
0.16
0.16
0.16
0.16
0.154
0.154
0.154
0.154
0.143
0.143
0.143
0.143
0.14
0.14
0.14
0.14
0.133
0.133
0.133
0.133
0.125
0.125
0.125
0.125
0.114
0.114
0.114
0.114
0.131
0.131
0.131
0.131
0.131
0.131
0.131
0.131
0.127
0.127
0.127
0.127
0.121
0.121
0.121
0.121
0.115
0.115
0.115
0.115
0.125
0.125
0.125
0.125
0.129
0.129
0.129
0.129
0.123
0.123
0.123
0.123
0.122
0.122
0.122
0.122
0.117
0.117
0.117
0.117
0.122
0.122
0.122
0.122
0.137
0.137
0.137
0.137
0.137
0.137
0.137
0.137
0.144
0.144
0.144
0.144
0.144
0.144
0.144
0.144
0.147
0.147
0.147
0.147
0.14
0.14
0.14
0.14
0.136
0.136
0.136
0.136
0.127
0.127
0.127
0.127
0.122
0.122
0.122
0.122
0.116
0.116
0.116
0.116
0.112
0.112
0.112
0.112
0.114
0.114
0.114
0.114
0.123
0.123
0.123
0.123
0.126
0.126
0.126
0.126
0.131
0.131
0.131
0.131
0.132
0.132
0.132
0.132
0.122
0.122
0.122
0.122
0.112
0.112
0.112
0.112
0.116
0.116
0.116
0.116
0.125
0.125
0.125
0.125
0.125
0.125
0.125
0.125
0.126
0.126
0.126
0.126
0.132
0.132
0.132
0.132
0.136
0.136
0.136
0.136
0.142
0.142
0.142
0.142
0.132
0.132
0.132
0.132
0.134
0.134
0.134
0.134
0.139
0.139
0.139
0.139
0.156
0.156
0.156
0.156
0.148
0.148
0.148
0.148
0.133
0.133
0.133
0.133
0.127
0.127
0.127
0.127
0.131
0.131
0.131
0.131
0.143
0.143
0.143
0.143
0.151
0.151
0.151
0.151
0.138
0.138
0.138
0.138
0.137
0.137
0.137
0.137
0.126
0.126
0.126
0.126
0.138
0.138
0.138
0.138
0.147
0.147
0.147
0.147
0.136
0.136
0.136
0.136
0.144
0.144
0.144
0.144
0.143
0.143
0.143
0.143
0.139
0.139
0.139
0.139
0.131
0.131
0.131
0.131
0.129
0.129
0.129
0.129
0.131
0.131
0.131
0.131
0.123
0.123
0.123
0.123
0.123
0.123
0.123
0.123
0.129
0.129
0.129
0.129
0.133
0.133
0.133
0.133
0.137
0.137
0.137
0.137
0.139
0.139
0.139
0.139
0.147
0.147
0.147
0.147
0.137
0.137
0.137
0.137
0.137
0.137
0.137
0.137
0.136
0.136
0.136
0.136
0.147
0.147
0.147
0.147
0.15
0.15
0.15
0.15
0.147
0.147
0.147
0.147
0.139
0.139
0.139
0.139
0.131
0.131
0.131
0.131
0.131
0.131
0.131
0.131
0.129
0.129
0.129
0.129
0.123
0.123
0.123
0.123
0.126
0.126
0.126
0.126
0.122
0.122
0.122
0.122
0.132
0.132
0.132
0.132
0.14
0.14
0.14
0.14
0.134
0.134
0.134
0.134
0.122
0.122
0.122
0.122
0.122
0.122
0.122
0.122
0.123
0.123
0.123
0.123
0.138
0.138
0.138
0.138
0.14
0.14
0.14
0.14
0.145
0.145
0.145
0.145
0.137
0.137
0.137
0.137
0.134
0.134
0.134
0.134
0.138
0.138
0.138
0.138
0.127
0.127
0.127
0.127
0.131
0.131
0.131
0.131
0.131
0.131
0.131
0.131
0.133
0.133
0.133
0.133
0.134
0.134
0.134
0.134
0.123
0.123
0.123
0.123
0.122
0.122
0.122
0.122
0.12
0.12
0.12
0.12
0.129
0.129
0.129
0.129
0.133
0.133
0.133
0.133
0.125
0.125
0.125
0.125
0.133
0.133
0.133
0.133
0.143
0.143
0.143
0.143
0.15
0.15
0.15
0.15
0.145
0.145
0.145
0.145
0.143
0.143
0.143
0.143
0.153
0.153
0.153
0.153
0.147
0.147
0.147
0.147
0.142
0.142
0.142
0.142
0.147
0.147
0.147
0.147
0.137
0.137
0.137
0.137
0.134
0.134
0.134
0.134
0.131
0.131
0.131
0.131
0.131
0.131
0.131
0.131
0.134
0.134
0.134
0.134
0.139
0.139
0.139
0.139
0.138
0.138
0.138
0.138
0.134
0.134
0.134
0.134
0.137
0.137
0.137
0.137
0.132
0.132
0.132
0.132
0.126
0.126
0.126
0.126
0.11
0.11
0.11
0.11
0.107
0.107
0.107
0.107
0.106
0.106
0.106
0.106
0.107
0.107
0.107
0.107
0.101
0.101
0.101
0.101
0.109
0.109
0.109
0.109
0.118
0.118
0.118
0.118
0.121
0.121
0.121
0.121
0.112
0.112
0.112
0.112
0.117
0.117
0.117
0.117
0.112
0.112
0.112
0.112
0.101
0.101
0.101
0.101
0.114
0.114
0.114
0.114
0.112
0.112
0.112
0.112
0.114
0.114
0.114
0.114
0.118
0.118
0.118
0.118
0.112
0.112
0.112
0.112
0.134
0.134
0.134
0.134
0.118
0.118
0.118
0.118
0.106
0.106
0.106
0.106
0.095
0.095
0.095
0.095
0.105
0.105
0.105
0.105
0.111
0.111
0.111
0.111
0.12
0.12
0.12
0.12
0.136
0.136
0.136
0.136
0.148
0.148
0.148
0.148
0.153
0.153
0.153
0.153
0.143
0.143
0.143
0.143
0.129
0.129
0.129
0.129
0.133
0.133
0.133
0.133
0.128
0.128
0.128
0.128
0.131
0.131
0.131
0.131
0.12
0.12
0.12
0.12
0.116
0.116
0.116
0.116
0.112
0.112
0.112
0.112
0.106
0.106
0.106
0.106
0.115
0.115
0.115
0.115
0.129
0.129
0.129
0.129
0.136
0.136
0.136
0.136
0.133
0.133
0.133
0.133
0.142
0.142
0.142
0.142
0.142
0.142
0.142
0.142
0.138
0.138
0.138
0.138
0.129
0.129
0.129
0.129
0.132
0.132
0.132
0.132
0.143
0.143
0.143
0.143
0.162
0.162
0.162
0.162
0.19
0.19
0.19
0.19
0.211
0.211
0.211
0.211
0.239
0.239
0.239
0.239
0.249
0.249
0.249
0.249
0.262
0.262
0.262
0.262
0.277
0.277
0.277
0.277
0.271
0.271
0.271
0.271
0.259
0.259
0.259
0.259
0.175
0.175
0.175
0.175
0.015
0.015
0.015
0.015
-0.182
-0.182
-0.182
-0.182
-0.416
-0.416
-0.416
-0.416
-0.698
-0.698
-0.698
-0.698
-0.935
-0.935
-0.935
-0.935
-1.131
-1.131
-1.131
-1.131
-1.243
-1.243
-1.243
-1.243
-1.275
-1.275
-1.275
-1.275
-1.182
-1.182
-1.182
-1.182
-1.055
-1.055
-1.055
-1.055
-0.945
-0.945
-0.945
-0.945
-0.8
-0.8
-0.8
-0.8
-0.64
-0.64
-0.64
-0.64
-0.371
-0.371
-0.371
-0.371
-0.173
-0.173
-0.173
-0.173
-0.037
-0.037
-0.037
-0.037
0.032
0.032
0.032
0.032
0.065
0.065
0.065
0.065
0.081
0.081
0.081
0.081
0.099
0.099
0.099
0.099
0.114
0.114
0.114
0.114
0.14
0.14
0.14
0.14
0.15
0.15
0.15
0.15
0.155
0.155
0.155
0.155
0.159
0.159
0.159
0.159
0.162
0.162
0.162
0.162
0.167
0.167
0.167
0.167
0.165
0.165
0.165
0.165
0.17
0.17
0.17
0.17
0.177
0.177
0.177
0.177
0.177
0.177
0.177
0.177
0.187
0.187
0.187
0.187
0.198
0.198
0.198
0.198
0.203
0.203
0.203
0.203
0.194
0.194
0.194
0.194
0.199
0.199
0.199
0.199
0.195
0.195
0.195
0.195
0.204
0.204
0.204
0.204
0.188
0.188
0.188
0.188
0.193
0.193
0.193
0.193
0.201
0.201
0.201
0.201
0.195
0.195
0.195
0.195
0.198
0.198
0.198
0.198
0.188
0.188
0.188
0.188
0.19
0.19
0.19
0.19
0.192
0.192
0.192
0.192
0.201
0.201
0.201
0.201
0.204
0.204
0.204
0.204
0.204
0.204
0.204
0.204
0.198
0.198
0.198
0.198
0.203
0.203
0.203
0.203
0.198
0.198
0.198
0.198
0.194
0.194
0.194
0.194
0.193
0.193
0.193
0.193
0.19
0.19
0.19
0.19
0.199
0.199
0.199
0.199
0.19
0.19
0.19
0.19
0.2
0.2
0.2
0.2
0.194
0.194
0.194
0.194
0.2
0.2
0.2
0.2
0.201
0.201
0.201
0.201
0.199
0.199
0.199
0.199
0.205
0.205
0.205
0.205
0.2
0.2
0.2
0.2
0.22
0.22
0.22
0.22
0.22
0.22
0.22
0.22
0.221
0.221
0.221
0.221
0.211
0.211
0.211
0.211
0.205
0.205
0.205
0.205
0.209
0.209
0.209
0.209
0.2
0.2
0.2
0.2
0.211
0.211
0.211
0.211
0.203
0.203
0.203
0.203
0.204
0.204
0.204
0.204
0.203
0.203
0.203
0.203
0.203
0.203
0.203
0.203
0.2
0.2
0.2
0.2
0.199
0.199
0.199
0.199
0.21
0.21
0.21
0.21
0.203
0.203
0.203
0.203
0.201
0.201
0.201
0.201
0.197
0.197
0.197
0.197
0.195
0.195
0.195
0.195
0.192
0.192
0.192
0.192
0.186
0.186
0.186
0.186
0.193
0.193
0.193
0.193
0.195
0.195
0.195
0.195
0.194
0.194
0.194
0.194
0.192
0.192
0.192
0.192
0.197
0.197
0.197
0.197
0.199
0.199
0.199
0.199
0.214
0.214
0.214
0.214
0.232
0.232
0.232
0.232
0.238
0.238
0.238
0.238
0.23
0.23
0.23
0.23
0.239
0.239
0.239
0.239
0.247
0.247
0.247
0.247
0.253
0.253
0.253
0.253
0.239
0.239
0.239
0.239
0.228
0.228
0.228
0.228
0.232
0.232
0.232
0.232
0.225
0.225
0.225
0.225
0.214
0.214
0.214
0.214
0.206
0.206
0.206
0.206
0.217
0.217
0.217
0.217
0.216
0.216
0.216
0.216
0.214
0.214
0.214
0.214
0.201
0.201
0.201
0.201
0.203
0.203
0.203
0.203
0.193
0.193
0.193
0.193
0.194
0.194
0.194
0.194
0.189
0.189
0.189
0.189
0.182
0.182
0.182
0.182
0.167
0.167
0.167
0.167
0.167
0.167
0.167
0.167
0.148
0.148
0.148
0.148
0.144
0.144
0.144
0.144
0.142
0.142
0.142
0.142
0.133
0.133
0.133
0.133
0.114
0.114
0.114
0.114
0.12
0.12
0.12
0.12
0.11
0.11
0.11
0.11
0.105
0.105
0.105
0.105
0.1
0.1
0.1
0.1
0.109
0.109
0.109
0.109
0.098
0.098
0.098
0.098
0.1
0.1
0.1
0.1
0.089
0.089
0.089
0.089
0.096
0.096
0.096
0.096
0.105
0.105
0.105
0.105
0.134
0.134
0.134
0.134
0.132
0.132
0.132
0.132
0.133
0.133
0.133
0.133
0.144
0.144
0.144
0.144
0.127
0.127
0.127
0.127
0.117
0.117
0.117
0.117
0.131
0.131
0.131
0.131
0.131
0.131
0.131
0.131
0.133
0.133
0.133
0.133
0.139
0.139
0.139
0.139
0.145
0.145
0.145
0.145
0.145
0.145
0.145
0.145
0.156
0.156
0.156
0.156
0.14
0.14
0.14
0.14
0.132
0.132
0.132
0.132
0.137
0.137
0.137
0.137
0.154
0.154
0.154
0.154
0.154
0.154
0.154
0.154
0.136
0.136
0.136
0.136
0.145
0.145
0.145
0.145
0.131
0.131
0.131
0.131
0.122
0.122
0.122
0.122
0.136
0.136
0.136
0.136
0.134
0.134
0.134
0.134
0.126
0.126
0.126
0.126
0.122
0.122
0.122
0.122
0.131
0.131
0.131
0.131
0.133
0.133
0.133
0.133
0.137
0.137
0.137
0.137
0.142
0.142
0.142
0.142
0.129
0.129
0.129
0.129
0.128
0.128
0.128
0.128
0.134
0.134
0.134
0.134
0.123
0.123
0.123
0.123
0.118
0.118
0.118
0.118
0.128
0.128
0.128
0.128
0.134
0.134
0.134
0.134
0.142
0.142
0.142
0.142
0.159
0.159
0.159
0.159
0.143
0.143
0.143
0.143
0.149
0.149
0.149
0.149
0.139
0.139
0.139
0.139
0.131
0.131
0.131
0.131
0.126
0.126
0.126
0.126
0.127
0.127
0.127
0.127
0.128
0.128
0.128
0.128
0.138
0.138
0.138
0.138
0.125
0.125
0.125
0.125
0.128
0.128
0.128
0.128
0.136
0.136
0.136
0.136
0.151
0.151
0.151
0.151
0.156
0.156
0.156
0.156
0.144
0.144
0.144
0.144
0.134
0.134
0.134
0.134
0.137
0.137
0.137
0.137
0.132
0.132
0.132
0.132
0.131
0.131
0.131
0.131
0.127
0.127
0.127
0.127
0.131
0.131
0.131
0.131
0.126
0.126
0.126
0.126
0.132
0.132
0.132
0.132
0.128
0.128
0.128
0.128
0.127
0.127
0.127
0.127
0.127
0.127
0.127
0.127
0.121
0.121
0.121
0.121
0.115
0.115
0.115
0.115
0.116
0.116
0.116
0.116
0.127
0.127
0.127
0.127
0.121
0.121
0.121
0.121
0.116
0.116
0.116
0.116
0.118
0.118
0.118
0.118
0.12
0.12
0.12
0.12
0.123
0.123
0.123
0.123
0.118
0.118
0.118
0.118
0.116
0.116
0.116
0.116
0.128
0.128
0.128
0.128
0.111
0.111
0.111
0.111
0.114
0.114
0.114
0.114
0.111
0.111
0.111
0.111
0.122
0.122
0.122
0.122
0.115
0.115
0.115
0.115
0.098
0.098
0.098
0.098
0.098
0.098
0.098
0.098
0.082
0.082
0.082
0.082
0.085
0.085
0.085
0.085
0.11
0.11
0.11
0.11
0.114
0.114
0.114
0.114
0.131
0.131
0.131
0.131
0.139
0.139
0.139
0.139
0.15
0.15
0.15
0.15
0.129
0.129
0.129
0.129
0.136
0.136
0.136
0.136
0.123
0.123
0.123
0.123
0.114
0.114
0.114
0.114
0.104
0.104
0.104
0.104
0.106
0.106
0.106
0.106
0.104
0.104
0.104
0.104
0.101
0.101
0.101
0.101
0.096
0.096
0.096
0.096
0.1
0.1
0.1
0.1
0.098
0.098
0.098
0.098
0.105
0.105
0.105
0.105
0.114
0.114
0.114
0.114
0.105
0.105
0.105
0.105
0.104
0.104
0.104
0.104
0.095
0.095
0.095
0.095
0.104
0.104
0.104
0.104
0.09
0.09
0.09
0.09
0.087
0.087
0.087
0.087
0.083
0.083
0.083
0.083
0.09
0.09
0.09
0.09
0.096
0.096
0.096
0.096
0.084
0.084
0.084
0.084
0.098
0.098
0.098
0.098
0.096
0.096
0.096
0.096
0.107
0.107
0.107
0.107
0.107
0.107
0.107
0.107
0.107
0.107
0.107
0.107
0.111
0.111
0.111
0.111
0.111
0.111
0.111
0.111
0.107
0.107
0.107
0.107
0.107
0.107
0.107
0.107
0.1
0.1
0.1
0.1
0.111
0.111
0.111
0.111
0.106
0.106
0.106
0.106
0.107
0.107
0.107
0.107
0.11
0.11
0.11
0.11
0.111
0.111
0.111
0.111
0.109
0.109
0.109
0.109
0.11
0.11
0.11
0.11
0.109
0.109
0.109
0.109
0.126
0.126
0.126
0.126
0.118
0.118
0.118
0.118
0.117
0.117
0.117
0.117
0.116
0.116
0.116
0.116
0.121
0.121
0.121
0.121
0.103
0.103
0.103
0.103
0.096
0.096
0.096
0.096
0.092
0.092
0.092
0.092
0.082
0.082
0.082
0.082
0.082
0.082
0.082
0.082
0.09
0.09
0.09
0.09
0.09
0.09
0.09
0.09
0.082
0.082
0.082
0.082
0.1
0.1
0.1
0.1
0.101
0.101
0.101
0.101
0.101
0.101
0.101
0.101
0.095
0.095
0.095
0.095
0.089
0.089
0.089
0.089
0.103
0.103
0.103
0.103
0.096
0.096
0.096
0.096
0.087
0.087
0.087
0.087
0.083
0.083
0.083
0.083
0.078
0.078
0.078
0.078
0.079
0.079
0.079
0.079
0.083
0.083
0.083
0.083
0.087
0.087
0.087
0.087
0.09
0.09
0.09
0.09
0.112
0.112
0.112
0.112
0.112
0.112
0.112
0.112
0.12
0.12
0.12
0.12
0.131
0.131
0.131
0.131
0.128
0.128
0.128
0.128
0.126
0.126
0.126
0.126
0.11
0.11
0.11
0.11
0.117
0.117
0.117
0.117
0.104
0.104
0.104
0.104
0.096
0.096
0.096
0.096
0.1
0.1
0.1
0.1
0.085
0.085
0.085
0.085
0.089
0.089
0.089
0.089
0.092
0.092
0.092
0.092
0.098
0.098
0.098
0.098
0.1
0.1
0.1
0.1
0.099
0.099
0.099
0.099
0.101
0.101
0.101
0.101
0.104
0.104
0.104
0.104
0.109
0.109
0.109
0.109
0.1
0.1
0.1
0.1
0.1
0.1
0.1
0.1
0.105
0.105
0.105
0.105
0.101
0.101
0.101
0.101
0.1
0.1
0.1
0.1
0.093
0.093
0.093
0.093
0.099
0.099
0.099
0.099
0.099
0.099
0.099
0.099
0.094
0.094
0.094
0.094
0.112
0.112
0.112
0.112
0.125
0.125
0.125
0.125
0.151
0.151
0.151
0.151
0.167
0.167
0.167
0.167
0.204
0.204
0.204
0.204
0.223
0.223
0.223
0.223
0.225
0.225
0.225
0.225
0.255
0.255
0.255
0.255
0.273
0.273
0.273
0.273
0.237
0.237
0.237
0.237
0.157
0.157
0.157
0.157
-0.002
-0.002
-0.002
-0.002
-0.198
-0.198
-0.198
-0.198
-0.448
-0.448
-0.448
-0.448
-0.759
-0.759
-0.759
-0.759
-1.027
-1.027
-1.027
-1.027
-1.248
-1.248
-1.248
-1.248
-1.398
-1.398
-1.398
-1.398
-1.461
-1.461
-1.461
-1.461
-1.392
-1.392
-1.392
-1.392
-1.265
-1.265
-1.265
-1.265
-1.134
-1.134
-1.134
-1.134
-0.955
-0.955
-0.955
-0.955
-0.78
-0.78
-0.78
-0.78
-0.503
-0.503
-0.503
-0.503
-0.225
-0.225
-0.225
-0.225
-0.067
-0.067
-0.067
-0.067
0.001
0.001
0.001
0.001
0.038
0.038
0.038
0.038
0.066
0.066
0.066
0.066
0.084
0.084
0.084
0.084
0.11
0.11
0.11
0.11
0.112
0.112
0.112
0.112
0.118
0.118
0.118
0.118
0.131
0.131
0.131
0.131
0.128
0.128
0.128
0.128
0.138
0.138
0.138
0.138
0.137
0.137
0.137
0.137
0.149
0.149
0.149
0.149
0.153
0.153
0.153
0.153
0.144
0.144
0.144
0.144
0.153
0.153
0.153
0.153
0.156
0.156
0.156
0.156
0.155
0.155
0.155
0.155
0.162
0.162
0.162
0.162
0.165
0.165
0.165
0.165
0.164
0.164
0.164
0.164
0.162
0.162
0.162
0.162
0.161
0.161
0.161
0.161
0.167
0.167
0.167
0.167
0.155
0.155
0.155
0.155
0.15
0.15
0.15
0.15
0.153
0.153
0.153
0.153
0.149
0.149
0.149
0.149
0.154
0.154
0.154
0.154
0.144
0.144
0.144
0.144
0.148
0.148
0.148
0.148
0.148
0.148
0.148
0.148
0.15
0.15
0.15
0.15
0.145
0.145
0.145
0.145
0.142
0.142
0.142
0.142
0.154
0.154
0.154
0.154
0.151
0.151
0.151
0.151
0.139
0.139
0.139
0.139
0.143
0.143
0.143
0.143
0.153
0.153
0.153
0.153
0.183
0.183
0.183
0.183
0.192
0.192
0.192
0.192
0.178
0.178
0.178
0.178
0.173
0.173
0.173
0.173
0.173
0.173
0.173
0.173
0.175
0.175
0.175
0.175
0.178
0.178
0.178
0.178
0.179
0.179
0.179
0.179
0.179
0.179
0.179
0.179
0.168
0.168
0.168
0.168
0.17
0.17
0.17
0.17
0.172
0.172
0.172
0.172
0.166
0.166
0.166
0.166
0.165
0.165
0.165
0.165
0.166
0.166
0.166
0.166
0.168
0.168
0.168
0.168
0.173
0.173
0.173
0.173
0.172
0.172
0.172
0.172
0.172
0.172
0.172
0.172
0.175
0.175
0.175
0.175
0.171
0.171
0.171
0.171
0.173
0.173
0.173
0.173
0.172
0.172
0.172
0.172
0.175
0.175
0.175
0.175
0.172
0.172
0.172
0.172
0.167
0.167
0.167
0.167
0.162
0.162
0.162
0.162
0.16
0.16
0.16
0.16
0.161
0.161
0.161
0.161
0.164
0.164
0.164
0.164
0.159
0.159
0.159
0.159
0.151
0.151
0.151
0.151
0.154
0.154
0.154
0.154
0.16
0.16
0.16
0.16
0.166
0.166
0.166
0.166
0.175
0.175
0.175
0.175
0.188
0.188
0.188
0.188
0.197
0.197
0.197
0.197
0.193
0.193
0.193
0.193
0.188
0.188
0.188
0.188
0.179
0.179
0.179
0.179
0.179
0.179
0.179
0.179
0.181
0.181
0.181
0.181
0.178
0.178
0.178
0.178
0.167
0.167
0.167
0.167
0.172
0.172
0.172
0.172
0.16
0.16
0.16
0.16
0.165
0.165
0.165
0.165
0.171
0.171
0.171
0.171
0.171
0.171
0.171
0.171
0.164
0.164
0.164
0.164
0.147
0.147
0.147
0.147
0.138
0.138
0.138
0.138
0.133
0.133
0.133
0.133
0.12
0.12
0.12
0.12
0.122
0.122
0.122
0.122
0.128
0.128
0.128
0.128
0.137
0.137
0.137
0.137
0.131
0.131
0.131
0.131
0.132
0.132
0.132
0.132
0.117
0.117
0.117
0.117
0.098
0.098
0.098
0.098
0.079
0.079
0.079
0.079
0.062
0.062
0.062
0.062
0.042
0.042
0.042
0.042
0.028
0.028
0.028
0.028
0.039
0.039
0.039
0.039
0.04
0.04
0.04
0.04
0.056
0.056
0.056
0.056
0.083
0.083
0.083
0.083
0.104
0.104
0.104
0.104
0.093
0.093
0.093
0.093
0.089
0.089
0.089
0.089
0.092
0.092
0.092
0.092
0.093
0.093
0.093
0.093
0.078
0.078
0.078
0.078
0.07
0.07
0.07
0.07
0.082
0.082
0.082
0.082
0.099
0.099
0.099
0.099
0.11
0.11
0.11
0.11
0.105
0.105
0.105
0.105
0.103
0.103
0.103
0.103
0.095
0.095
0.095
0.095
0.096
0.096
0.096
0.096
0.095
0.095
0.095
0.095
0.095
0.095
0.095
0.095
0.098
0.098
0.098
0.098
0.09
0.09
0.09
0.09
0.093
0.093
0.093
0.093
0.099
0.099
0.099
0.099
0.094
0.094
0.094
0.094
0.085
0.085
0.085
0.085
0.098
0.098
0.098
0.098
0.094
0.094
0.094
0.094
0.095
0.095
0.095
0.095
0.101
0.101
0.101
0.101
0.114
0.114
0.114
0.114
0.132
0.132
0.132
0.132
0.123
0.123
0.123
0.123
0.109
0.109
0.109
0.109
0.096
0.096
0.096
0.096
0.1
0.1
0.1
0.1
0.114
0.114
0.114
0.114
0.11
0.11
0.11
0.11
0.109
0.109
0.109
0.109
0.114
0.114
0.114
0.114
0.126
0.126
0.126
0.126
0.117
0.117
0.117
0.117
0.115
0.115
0.115
0.115
0.125
0.125
0.125
0.125
0.129
0.129
0.129
0.129
0.147
0.147
0.147
0.147
0.134
0.134
0.134
0.134
0.126
0.126
0.126
0.126
0.128
0.128
0.128
0.128
0.137
0.137
0.137
0.137
0.112
0.112
0.112
0.112
0.104
0.104
0.104
0.104
0.116
0.116
0.116
0.116
0.115
0.115
0.115
0.115
0.111
0.111
0.111
0.111
0.139
0.139
0.139
0.139
0.131
0.131
0.131
0.131
0.131
0.131
0.131
0.131
0.126
0.126
0.126
0.126
0.134
0.134
0.134
0.134
0.12
0.12
0.12
0.12
0.117
0.117
0.117
0.117
0.116
0.116
0.116
0.116
0.131
0.131
0.131
0.131
0.12
0.12
0.12
0.12
0.131
0.131
0.131
0.131
0.131
0.131
0.131
0.131
0.123
0.123
0.123
0.123
0.11
0.11
0.11
0.11
0.118
0.118
0.118
0.118
0.147
0.147
0.147
0.147
0.117
0.117
0.117
0.117
0.116
0.116
0.116
0.116
0.099
0.099
0.099
0.099
0.105
0.105
0.105
0.105
0.096
0.096
0.096
0.096
0.098
0.098
0.098
0.098
0.112
0.112
0.112
0.112
0.114
0.114
0.114
0.114
0.101
0.101
0.101
0.101
0.088
0.088
0.088
0.088
0.099
0.099
0.099
0.099
0.081
0.081
0.081
0.081
0.085
0.085
0.085
0.085
0.084
0.084
0.084
0.084
0.077
0.077
0.077
0.077
0.094
0.094
0.094
0.094
0.099
0.099
0.099
0.099
0.103
0.103
0.103
0.103
0.073
0.073
0.073
0.073
0.078
0.078
0.078
0.078
0.087
0.087
0.087
0.087
0.093
0.093
0.093
0.093
0.081
0.081
0.081
0.081
0.068
0.068
0.068
0.068
0.056
0.056
0.056
0.056
0.066
0.066
0.066
0.066
0.076
0.076
0.076
0.076
0.076
0.076
0.076
0.076
0.078
0.078
0.078
0.078
0.076
0.076
0.076
0.076
0.084
0.084
0.084
0.084
0.088
0.088
0.088
0.088
0.085
0.085
0.085
0.085
0.076
0.076
0.076
0.076
0.079
0.079
0.079
0.079
0.095
0.095
0.095
0.095
0.1
0.1
0.1
0.1
0.095
0.095
0.095
0.095
0.109
0.109
0.109
0.109
0.104
0.104
0.104
0.104
0.103
0.103
0.103
0.103
0.092
0.092
0.092
0.092
0.088
0.088
0.088
0.088
0.072
0.072
0.072
0.072
0.063
0.063
0.063
0.063
0.06
0.06
0.06
0.06
0.063
0.063
0.063
0.063
0.055
0.055
0.055
0.055
0.067
0.067
0.067
0.067
0.068
0.068
0.068
0.068
0.061
0.061
0.061
0.061
0.065
0.065
0.065
0.065
0.055
0.055
0.055
0.055
0.052
0.052
0.052
0.052
0.061
0.061
0.061
0.061
0.061
0.061
0.061
0.061
0.056
0.056
0.056
0.056
0.051
0.051
0.051
0.051
0.062
0.062
0.062
0.062
0.045
0.045
0.045
0.045
0.05
0.05
0.05
0.05
0.06
0.06
0.06
0.06
0.055
0.055
0.055
0.055
0.04
0.04
0.04
0.04
0.068
0.068
0.068
0.068
0.067
0.067
0.067
0.067
0.054
0.054
0.054
0.054
0.044
0.044
0.044
0.044
0.054
0.054
0.054
0.054
0.05
0.05
0.05
0.05
0.055
0.055
0.055
0.055
0.055
0.055
0.055
0.055
0.045
0.045
0.045
0.045
0.043
0.043
0.043
0.043
0.057
0.057
0.057
0.057
0.048
0.048
0.048
0.048
0.065
0.065
0.065
0.065
0.065
0.065
0.065
0.065
0.057
0.057
0.057
0.057
0.061
0.061
0.061
0.061
0.071
0.071
0.071
0.071
0.057
0.057
0.057
0.057
0.059
0.059
0.059
0.059
0.063
0.063
0.063
0.063
0.05
0.05
0.05
0.05
0.056
0.056
0.056
0.056
0.049
0.049
0.049
0.049
0.039
0.039
0.039
0.039
0.039
0.039
0.039
0.039
0.035
0.035
0.035
0.035
0.045
0.045
0.045
0.045
0.038
0.038
0.038
0.038
0.04
0.04
0.04
0.04
0.037
0.037
0.037
0.037
0.054
0.054
0.054
0.054
0.057
0.057
0.057
0.057
0.061
0.061
0.061
0.061
0.056
0.056
0.056
0.056
0.05
0.05
0.05
0.05
0.049
0.049
0.049
0.049
0.052
0.052
0.052
0.052
0.066
0.066
0.066
0.066
0.07
0.07
0.07
0.07
0.074
0.074
0.074
0.074
0.078
0.078
0.078
0.078
0.081
0.081
0.081
0.081
0.083
0.083
0.083
0.083
0.078
0.078
0.078
0.078
0.087
0.087
0.087
0.087
0.083
0.083
0.083
0.083
0.077
0.077
0.077
0.077
0.07
0.07
0.07
0.07
0.072
0.072
0.072
0.072
0.074
0.074
0.074
0.074
0.07
0.07
0.07
0.07
0.079
0.079
0.079
0.079
0.078
0.078
0.078
0.078
0.079
0.079
0.079
0.079
0.076
0.076
0.076
0.076
0.101
0.101
0.101
0.101
0.096
0.096
0.096
0.096
0.065
0.065
0.065
0.065
0.062
0.062
0.062
0.062
0.063
0.063
0.063
0.063
0.052
0.052
0.052
0.052
0.052
0.052
0.052
0.052
0.085
0.085
0.085
0.085
0.067
0.067
0.067
0.067
0.068
0.068
0.068
0.068
0.073
0.073
0.073
0.073
0.079
0.079
0.079
0.079
0.082
0.082
0.082
0.082
0.088
0.088
0.088
0.088
0.1
0.1
0.1
0.1
0.101
0.101
0.101
0.101
0.127
0.127
0.127
0.127
0.143
0.143
0.143
0.143
0.15
0.15
0.15
0.15
0.188
0.188
0.188
0.188
0.219
0.219
0.219
0.219
0.238
0.238
0.238
0.238
0.232
0.232
0.232
0.232
0.234
0.234
0.234
0.234
0.217
0.217
0.217
0.217
0.067
0.067
0.067
0.067
-0.172
-0.172
-0.172
-0.172
-0.366
-0.366
-0.366
-0.366
-0.662
-0.662
-0.662
-0.662
-0.914
-0.914
-0.914
-0.914
-1.139
-1.139
-1.139
-1.139
-1.332
-1.332
-1.332
-1.332
-1.41
-1.41
-1.41
-1.41
-1.372
-1.372
-1.372
-1.372
-1.251
-1.251
-1.251
-1.251
-1.123
-1.123
-1.123
-1.123
-0.956
-0.956
-0.956
-0.956
-0.797
-0.797
-0.797
-0.797
-0.552
-0.552
-0.552
-0.552
-0.289
-0.289
-0.289
-0.289
-0.11
-0.11
-0.11
-0.11
-0.029
-0.029
-0.029
-0.029
0.001
0.001
0.001
0.001
0.027
0.027
0.027
0.027
0.033
0.033
0.033
0.033
0.046
0.046
0.046
0.046
0.09
0.09
0.09
0.09
0.073
0.073
0.073
0.073
0.083
0.083
0.083
0.083
0.084
0.084
0.084
0.084
0.101
0.101
0.101
0.101
0.098
0.098
0.098
0.098
0.109
0.109
0.109
0.109
0.118
0.118
0.118
0.118
0.128
0.128
0.128
0.128
0.12
0.12
0.12
0.12
0.123
0.123
0.123
0.123
0.125
0.125
0.125
0.125
0.147
0.147
0.147
0.147
0.12
0.12
0.12
0.12
0.123
0.123
0.123
0.123
0.129
0.129
0.129
0.129
0.132
0.132
0.132
0.132
0.128
0.128
0.128
0.128
0.134
0.134
0.134
0.134
0.136
0.136
0.136
0.136
0.134
0.134
0.134
0.134
0.128
0.128
0.128
0.128
0.123
0.123
0.123
0.123
0.128
0.128
0.128
0.128
0.125
0.125
0.125
0.125
0.117
0.117
0.117
0.117
0.134
0.134
0.134
0.134
0.123
0.123
0.123
0.123
0.121
0.121
0.121
0.121
0.133
0.133
0.133
0.133
0.125
0.125
0.125
0.125
0.117
0.117
0.117
0.117
0.118
0.118
0.118
0.118
0.111
0.111
0.111
0.111
0.111
0.111
0.111
0.111
0.103
0.103
0.103
0.103
0.104
0.104
0.104
0.104
0.1
0.1
0.1
0.1
0.103
0.103
0.103
0.103
0.106
0.106
0.106
0.106
0.089
0.089
0.089
0.089
0.107
0.107
0.107
0.107
0.1
0.1
0.1
0.1
0.104
0.104
0.104
0.104
0.101
0.101
0.101
0.101
0.096
0.096
0.096
0.096
0.093
0.093
0.093
0.093
0.083
0.083
0.083
0.083
0.082
0.082
0.082
0.082
0.076
0.076
0.076
0.076
0.089
0.089
0.089
0.089
0.074
0.074
0.074
0.074
0.087
0.087
0.087
0.087
0.099
0.099
0.099
0.099
0.098
0.098
0.098
0.098
0.109
0.109
0.109
0.109
0.112
0.112
0.112
0.112
0.126
0.126
0.126
0.126
0.128
0.128
0.128
0.128
0.126
0.126
0.126
0.126
0.105
0.105
0.105
0.105
0.104
0.104
0.104
0.104
0.11
0.11
0.11
0.11
0.096
0.096
0.096
0.096
0.098
0.098
0.098
0.098
0.106
0.106
0.106
0.106
0.12
0.12
0.12
0.12
0.122
0.122
0.122
0.122
0.107
0.107
0.107
0.107
0.096
0.096
0.096
0.096
0.101
0.101
0.101
0.101
0.088
0.088
0.088
0.088
0.098
0.098
0.098
0.098
0.077
0.077
0.077
0.077
0.088
0.088
0.088
0.088
0.088
0.088
0.088
0.088
0.083
0.083
0.083
0.083
0.07
0.07
0.07
0.07
0.085
0.085
0.085
0.085
0.084
0.084
0.084
0.084
0.073
0.073
0.073
0.073
0.052
0.052
0.052
0.052
0.057
0.057
0.057
0.057
0.063
0.063
0.063
0.063
0.059
0.059
0.059
0.059
0.073
0.073
0.073
0.073
0.073
0.073
0.073
0.073
0.099
0.099
0.099
0.099
0.062
0.062
0.062
0.062
0.068
0.068
0.068
0.068
0.06
0.06
0.06
0.06
0.052
0.052
0.052
0.052
0.046
0.046
0.046
0.046
0.044
0.044
0.044
0.044
0.026
0.026
0.026
0.026
0.011
0.011
0.011
0.011
0.01
0.01
0.01
0.01
-0.002
-0.002
-0.002
-0.002
-0.011
-0.011
-0.011
-0.011
-0.011
-0.011
-0.011
-0.011
-0.006
-0.006
-0.006
-0.006




0.028
0.028
0.028
0.028
0.009
0.009
0.009
0.009
0.02
0.02
0.02
0.02
0.033
0.033
0.033
0.033
0.028
0.028
0.028
0.028
0.043
0.043
0.043
0.043
0.037
0.037
0.037
0.037
0.035
0.035
0.035
0.035
0.018
0.018
0.018
0.018
0.027
0.027
0.027
0.027
0.029
0.029
0.029
0.029
0.043
0.043
0.043
0.043
0.046
0.046
0.046
0.046
0.05
0.05
0.05
0.05
0.07
0.07
0.07
0.07
0.049
0.049
0.049
0.049
0.057
0.057
0.057
0.057
0.063
0.063
0.063
0.063
0.083
0.083
0.083
0.083
0.089
0.089
0.089
0.089
0.07
0.07
0.07
0.07
0.072
0.072
0.072
0.072
0.077
0.077
0.077
0.077
0.078
0.078
0.078
0.078
0.06
0.06
0.06
0.06
0.073
0.073
0.073
0.073
0.079
0.079
0.079
0.079
0.082
0.082
0.082
0.082
0.035
0.035
0.035
0.035
0.043
0.043
0.043
0.043
0.039
0.039
0.039
0.039
0.028
0.028
0.028
0.028
0.029
0.029
0.029
0.029
0.015
0.015
0.015
0.015
0.016
0.016
0.016
0.016
0.012
0.012
0.012
0.012
0.018
0.018
0.018
0.018
0.016
0.016
0.016
0.016
0.013
0.013
0.013
0.013
0.024
0.024
0.024
0.024
0.028
0.028
0.028
0.028
0.029
0.029
0.029
0.029
0.016
0.016
0.016
0.016
0.015
0.015
0.015
0.015
0.013
0.013
0.013
0.013
0.006
0.006
0.006
0.006




0.001
0.001
0.001
0.001
0.005
0.005
0.005
0.005




0.001
0.001
0.001
0.001
0.01
0.01
0.01
0.01
0.016
0.016
0.016
0.016
0.011
0.011
0.011
0.011
0.012
0.012
0.012
0.012
0.012
0.012
0.012
0.012
0.007
0.007
0.007
0.007
0.009
0.009
0.009
0.009
0.015
0.015
0.015
0.015
0.017
0.017
0.017
0.017
0.022
0.022
0.022
0.022
0.011
0.011
0.011
0.011
0.001
0.001
0.001
0.001
-0.004
-0.004
-0.004
-0.004
-0.007
-0.007
-0.007
-0.007
0.005
0.005
0.005
0.005
0.029
0.029
0.029
0.029
0.026
0.026
0.026
0.026
0.018
0.018
0.018
0.018
0.012
0.012
0.012
0.012
0.018
0.018
0.018
0.018
0.023
0.023
0.023
0.023
0.027
0.027
0.027
0.027
0.021
0.021
0.021
0.021
0.029
0.029
0.029
0.029
0.032
0.032
0.032
0.032
0.05
0.05
0.05
0.05
0.042
0.042
0.042
0.042
0.029
0.029
0.029
0.029
0.02
0.02
0.02
0.02
0.049
0.049
0.049
0.049
0.034
0.034
0.034
0.034
0.044
0.044
0.044
0.044
0.057
0.057
0.057
0.057
0.051
0.051
0.051
0.051
0.018
0.018
0.018
0.018
0.015
0.015
0.015
0.015
0.007
0.007
0.007
0.007
0.017
0.017
0.017
0.017
0.033
0.033
0.033
0.033
0.038
0.038
0.038
0.038
0.042
0.042
0.042
0.042
0.044
0.044
0.044
0.044
0.054
0.054
0.054
0.054
0.061
0.061
0.061
0.061
0.054
0.054
0.054
0.054
0.056
0.056
0.056
0.056
0.06
0.06
0.06
0.06
0.063
0.063
0.063
0.063
0.06
0.06
0.06
0.06
0.052
0.052
0.052
0.052
0.083
0.083
0.083
0.083
0.078
0.078
0.078
0.078
0.074
0.074
0.074
0.074
0.09
0.09
0.09
0.09
0.081
0.081
0.081
0.081
0.098
0.098
0.098
0.098
0.085
0.085
0.085
0.085
0.067
0.067
0.067
0.067
0.121
0.121
0.121
0.121
0.084
0.084
0.084
0.084
0.183
0.183
0.183
0.183
0.14
0.14
0.14
0.14
0.107
0.107
0.107
0.107
0.193
0.193
0.193
0.193
0.136
0.136
0.136
0.136
0.17
0.17
0.17
0.17
0.125
0.125
0.125
0.125
0.114
0.114
0.114
0.114
0.181
0.181
0.181
0.181
0.118
0.118
0.118
0.118
0.127
0.127
0.127
0.127
0.145
0.145
0.145
0.145
0.107
0.107
0.107
0.107
0.106
0.106
0.106
0.106
0.111
0.111
0.111
0.111
0.073
0.073
0.073
0.073
0.04
0.04
0.04
0.04
0.044
0.044
0.044
0.044
0.038
0.038
0.038
0.038
0.037
0.037
0.037
0.037
0.035
0.035
0.035
0.035
0.032
0.032
0.032
0.032
0.042
0.042
0.042
0.042
0.037
0.037
0.037
0.037
0.048
0.048
0.048
0.048
0.055
0.055
0.055
0.055
0.045
0.045
0.045
0.045
0.046
0.046
0.046
0.046
0.061
0.061
0.061
0.061
0.055
0.055
0.055
0.055
0.072
0.072
0.072
0.072
0.063
0.063
0.063
0.063
0.049
0.049
0.049
0.049
0.063
0.063
0.063
0.063
0.066
0.066
0.066
0.066
0.067
0.067
0.067
0.067
0.076
0.076
0.076
0.076
0.068
0.068
0.068
0.068
0.066
0.066
0.066
0.066
0.062
0.062
0.062
0.062
0.068
0.068
0.068
0.068
0.061
0.061
0.061
0.061
0.05
0.05
0.05
0.05
0.051
0.051
0.051
0.051
0.055
0.055
0.055
0.055
0.044
0.044
0.044
0.044
0.032
0.032
0.032
0.032
0.026
0.026
0.026
0.026
0.028
0.028
0.028
0.028
0.04
0.04
0.04
0.04
0.013
0.013
0.013
0.013
0.007
0.007
0.007
0.007
0.022
0.022
0.022
0.022
0.005
0.005
0.005
0.005
0.012
0.012
0.012
0.012
-0.004
-0.004
-0.004
-0.004
0.026
0.026
0.026
0.026
0.009
0.009
0.009
0.009
0.013
0.013
0.013
0.013
0.001
0.001
0.001
0.001
0.017
0.017
0.017
0.017
0.029
0.029
0.029
0.029
0.074
0.074
0.074
0.074
0.089
0.089
0.089
0.089
0.087
0.087
0.087
0.087
0.105
0.105
0.105
0.105
0.123
0.123
0.123
0.123
0.138
0.138
0.138
0.138
0.134
0.134
0.134
0.134
0.044
0.044
0.044
0.044
-0.082
-0.082
-0.082
-0.082
-0.23
-0.23
-0.23
-0.23
-0.447
-0.447
-0.447
-0.447
-0.725
-0.725
-0.725
-0.725
-0.933
-0.933
-0.933
-0.933
-1.151
-1.151
-1.151
-1.151
-1.244
-1.244
-1.244
-1.244
-1.227
-1.227
-1.227
-1.227
-1.209
-1.209
-1.209
-1.209
-1.063
-1.063
-1.063
-1.063
-0.939
-0.939
-0.939
-0.939
-0.829
-0.829
-0.829
-0.829
-0.641
-0.641
-0.641
-0.641
-0.414
-0.414
-0.414
-0.414
-0.183
-0.183
-0.183
-0.183
-0.127
-0.127
-0.127
-0.127
-0.101
-0.101
-0.101
-0.101
-0.052
-0.052
-0.052
-0.052
-0.004
-0.004
-0.004
-0.004
0.011
0.011
0.011
0.011
0.027
0.027
0.027
0.027
0.017
0.017
0.017
0.017
0.039
0.039
0.039
0.039
0.049
0.049
0.049
0.049
0.06
0.06
0.06
0.06
0.046
0.046
0.046
0.046
0.072
0.072
0.072
0.072
0.054
0.054
0.054
0.054
0.092
0.092
0.092
0.092
0.094
0.094
0.094
0.094
0.104
0.104
0.104
0.104
0.109
0.109
0.109
0.109
0.085
0.085
0.085
0.085
0.12
0.12
0.12
0.12
0.127
0.127
0.127
0.127
0.116
0.116
0.116
0.116
0.09
0.09
0.09
0.09
0.11
0.11
0.11
0.11
0.107
0.107
0.107
0.107
0.122
0.122
0.122
0.122
0.126
0.126
0.126
0.126
0.112
0.112
0.112
0.112
0.095
0.095
0.095
0.095
0.11
0.11
0.11
0.11
0.157
0.157
0.157
0.157
0.107
0.107
0.107
0.107
0.11
0.11
0.11
0.11
0.126
0.126
0.126
0.126
0.117
0.117
0.117
0.117
0.104
0.104
0.104
0.104
0.09
0.09
0.09
0.09
0.073
0.073
0.073
0.073
0.084
0.084
0.084
0.084
0.104
0.104
0.104
0.104
0.122
0.122
0.122
0.122
0.111
0.111
0.111
0.111
0.096
0.096
0.096
0.096
0.062
0.062
0.062
0.062
0.094
0.094
0.094
0.094
0.107
0.107
0.107
0.107
0.081
0.081
0.081
0.081
0.159
0.159
0.159
0.159
0.089
0.089
0.089
0.089
0.138
0.138
0.138
0.138
0.201
0.201
0.201
0.201
0.121
0.121
0.121
0.121
0.123
0.123
0.123
0.123
0.07
0.07
0.07
0.07
0.122
0.122
0.122
0.122
0.14
0.14
0.14
0.14
0.067
0.067
0.067
0.067
0.104
0.104
0.104
0.104
0.101
0.101
0.101
0.101
0.149
0.149
0.149
0.149
0.164
0.164
0.164
0.164
0.111
0.111
0.111
0.111
0.1
0.1
0.1
0.1
0.095
0.095
0.095
0.095
0.073
0.073
0.073
0.073
0.067
0.067
0.067
0.067
0.06
0.06
0.06
0.06
0.07
0.07
0.07
0.07
0.071
0.071
0.071
0.071
0.079
0.079
0.079
0.079
0.071
0.071
0.071
0.071
0.078
0.078
0.078
0.078
0.074
0.074
0.074
0.074
0.074
0.074
0.074
0.074
0.073
0.073
0.073
0.073
0.071
0.071
0.071
0.071
0.079
0.079
0.079
0.079
0.079
0.079
0.079
0.079
0.076
0.076
0.076
0.076
0.071
0.071
0.071
0.071
0.066
0.066
0.066
0.066
0.063
0.063
0.063
0.063
0.056
0.056
0.056
0.056
0.054
0.054
0.054
0.054
0.05
0.05
0.05
0.05
0.044
0.044
0.044
0.044
0.035
0.035
0.035
0.035
0.02
0.02
0.02
0.02
0.007
0.007
0.007
0.007
-0.004
-0.004
-0.004
-0.004
-0.006
-0.006
-0.006
-0.006
-0.01
-0.01
-0.01
-0.01
-0.021
-0.021
-0.021
-0.021
-0.034
-0.034
-0.034
-0.034
-0.037
-0.037
-0.037
-0.037
-0.049
-0.049
-0.049
-0.049
-0.051
-0.051
-0.051
-0.051
-0.055
-0.055
-0.055
-0.055
-0.052
-0.052
-0.052
-0.052
-0.057
-0.057
-0.057
-0.057
-0.073
-0.073
-0.073
-0.073
-0.073
-0.073
-0.073
-0.073
-0.087
-0.087
-0.087
-0.087
-0.09
-0.09
-0.09
-0.09
-0.093
-0.093
-0.093
-0.093
-0.099
-0.099
-0.099
-0.099
-0.104
-0.104
-0.104
-0.104
-0.098
-0.098
-0.098
-0.098
-0.088
-0.088
-0.088
-0.088
-0.083
-0.083
-0.083
-0.083
-0.084
-0.084
-0.084
-0.084
-0.089
-0.089
-0.089
-0.089
-0.076
-0.076
-0.076
-0.076
-0.067
-0.067
-0.067
-0.067
-0.06
-0.06
-0.06
-0.06
-0.063
-0.063
-0.063
-0.063
-0.057
-0.057
-0.057
-0.057
-0.038
-0.038
-0.038
-0.038
-0.038
-0.038
-0.038
-0.038
-0.045
-0.045
-0.045
-0.045
-0.054
-0.054
-0.054
-0.054
-0.048
-0.048
-0.048
-0.048
-0.046
-0.046
-0.046
-0.046
-0.046
-0.046
-0.046
-0.046
-0.051
-0.051
-0.051
-0.051
-0.051
-0.051
-0.051
-0.051
-0.055
-0.055
-0.055
-0.055
-0.043
-0.043
-0.043
-0.043
-0.038
-0.038
-0.038
-0.038
-0.039
-0.039
-0.039
-0.039
-0.054
-0.054
-0.054
-0.054
-0.057
-0.057
-0.057
-0.057
-0.062
-0.062
-0.062
-0.062
-0.045
-0.045
-0.045
-0.045
-0.026
-0.026
-0.026
-0.026
-0.035
-0.035
-0.035
-0.035
-0.037
-0.037
-0.037
-0.037
-0.035
-0.035
-0.035
-0.035
-0.032
-0.032
-0.032
-0.032
-0.024
-0.024
-0.024
-0.024
-0.018
-0.018
-0.018
-0.018
-0.011
-0.011
-0.011
-0.011
-0.018
-0.018
-0.018
-0.018
-0.027
-0.027
-0.027
-0.027
-0.04
-0.04
-0.04
-0.04
-0.054
-0.054
-0.054
-0.054
-0.043
-0.043
-0.043
-0.043
-0.042
-0.042
-0.042
-0.042
-0.042
-0.042
-0.042
-0.042
-0.043
-0.043
-0.043
-0.043
-0.043
-0.043
-0.043
-0.043
-0.039
-0.039
-0.039
-0.039
-0.04
-0.04
-0.04
-0.04
-0.045
-0.045
-0.045
-0.045
-0.039
-0.039
-0.039
-0.039
-0.042
-0.042
-0.042
-0.042
-0.049
-0.049
-0.049
-0.049
-0.052
-0.052
-0.052
-0.052
-0.045
-0.045
-0.045
-0.045
-0.038
-0.038
-0.038
-0.038
-0.027
-0.027
-0.027
-0.027
-0.022
-0.022
-0.022
-0.022
-0.023
-0.023
-0.023
-0.023
-0.027
-0.027
-0.027
-0.027
-0.016
-0.016
-0.016
-0.016
-0.012
-0.012
-0.012
-0.012
-0.015
-0.015
-0.015
-0.015
-0.013
-0.013
-0.013
-0.013
-0.013
-0.013
-0.013
-0.013
-0.016
-0.016
-0.016
-0.016
-0.015
-0.015
-0.015
-0.015
-0.021
-0.021
-0.021
-0.021
-0.018
-0.018
-0.018
-0.018
-0.002
-0.002
-0.002
-0.002
-0.015
-0.015
-0.015
-0.015
-0.011
-0.011
-0.011
-0.011
-0.013
-0.013
-0.013
-0.013
-0.02
-0.02
-0.02
-0.02
-0.022
-0.022
-0.022
-0.022
-0.007
-0.007
-0.007
-0.007
-0.005
-0.005
-0.005
-0.005
-0.006
-0.006
-0.006
-0.006
0.001
0.001
0.001
0.001
-0.005
-0.005
-0.005
-0.005
-0.006
-0.006
-0.006
-0.006
-0.009
-0.009
-0.009
-0.009
-0.023
-0.023
-0.023
-0.023
-0.021
-0.021
-0.021
-0.021
-0.026
-0.026
-0.026
-0.026
-0.015
-0.015
-0.015
-0.015




-0.004
-0.004
-0.004
-0.004
-0.002
-0.002
-0.002
-0.002
0.002
0.002
0.002
0.002
0.001
0.001
0.001
0.001
0.007
0.007
0.007
0.007
0.018
0.018
0.018
0.018
0.006
0.006
0.006
0.006
-0.011
-0.011
-0.011
-0.011
-0.01
-0.01
-0.01
-0.01
-0.01
-0.01
-0.01
-0.01
-0.009
-0.009
-0.009
-0.009
-0.012
-0.012
-0.012
-0.012
-0.004
-0.004
-0.004
-0.004
0.006
0.006
0.006
0.006
0.006
0.006
0.006
0.006
0.005
0.005
0.005
0.005
0.018
0.018
0.018
0.018
0.024
0.024
0.024
0.024
0.01
0.01
0.01
0.01
0.006
0.006
0.006
0.006
0.007
0.007
0.007
0.007
0.004
0.004
0.004
0.004
-0.004
-0.004
-0.004
-0.004
0.007
0.007
0.007
0.007
0.007
0.007
0.007
0.007
0.006
0.006
0.006
0.006
-0.001
-0.001
-0.001
-0.001
-0.013
-0.013
-0.013
-0.013
-0.018
-0.018
-0.018
-0.018
-0.006
-0.006
-0.006
-0.006
